Kinetic Energy MeV,Total Stp. Pow. MeV cm2/g,CSDA Range g/cm2,Thickness (cm)
0.001,176.1,7.469e-06,4.037297297297297e-06
0.0015,204.7,1.008e-05,5.448648648648649e-06
0.002,229.9,1.238e-05,6.691891891891892e-06
0.0025,252.6,1.445e-05,7.81081081081081e-06
0.003,273.5,1.635e-05,8.837837837837839e-06
0.004,311.2,1.978e-05,1.0691891891891892e-05
0.005,344.9,2.282e-05,1.2335135135135134e-05
0.006,375.6,2.56e-05,1.3837837837837837e-05
0.007,404.0,2.817e-05,1.5227027027027026e-05
0.008,430.6,3.056e-05,1.6518918918918917e-05
0.009,455.7,3.282e-05,1.774054054054054e-05
0.01,479.5,3.496e-05,1.8897297297297293e-05
0.0125,522.4,3.994e-05,2.158918918918919e-05
0.015,557.9,4.456e-05,2.4086486486486484e-05
0.0175,587.6,4.892e-05,2.6443243243243243e-05
0.02,612.4,5.309e-05,2.869729729729729e-05
0.0225,633.0,5.71e-05,3.0864864864864866e-05
0.025,649.9,6.1e-05,3.297297297297297e-05
0.0275,663.6,6.48e-05,3.502702702702703e-05
0.03,674.6,6.854e-05,3.704864864864865e-05
0.035,689.6,7.586e-05,4.100540540540541e-05
0.04,697.6,8.307e-05,4.49027027027027e-05
0.045,700.3,9.022e-05,4.8767567567567566e-05
0.05,699.4,9.736e-05,5.262702702702703e-05
0.055,695.9,0.0001045,5.6486486486486486e-05
0.06,690.6,0.0001117,6.037837837837838e-05
0.065,684.2,0.000119,6.432432432432433e-05
0.07,677.0,0.0001264,6.832432432432433e-05
0.075,669.4,0.0001338,7.232432432432432e-05
0.08,661.7,0.0001413,7.637837837837837e-05
0.085,653.8,0.0001489,8.048648648648647e-05
0.09,646.0,0.0001566,8.464864864864865e-05
0.095,638.2,0.0001644,8.886486486486487e-05
0.1,630.6,0.0001723,9.313513513513512e-05
0.125,595.1,0.0002131,0.0001151891891891
0.15,563.7,0.0002563,0.0001385405405405
0.175,536.0,0.0003018,0.0001631351351351
0.2,511.3,0.0003495,0.0001889189189189
0.225,488.9,0.0003996,0.000216
0.25,468.7,0.0004518,0.0002442162162162
0.275,450.2,0.0005062,0.0002736216216216
0.3,433.2,0.0005629,0.0003042702702702
0.35,404.7,0.0006824,0.0003688648648648
0.4,380.4,0.0008099,0.0004377837837837
0.45,358.3,0.0009453,0.0005109729729729
0.5,337.9,0.001089,0.0005886486486486
0.55,319.0,0.001241,0.0006708108108108
0.6,302.4,0.001403,0.0007583783783783
0.65,287.6,0.001572,0.0008497297297297
0.7,274.4,0.00175,0.0009459459459459
0.75,262.5,0.001937,0.001047027027027
0.8,251.7,0.002131,0.0011518918918918
0.85,241.8,0.002334,0.0012616216216216
0.9,232.8,0.002545,0.0013756756756756
0.95,224.6,0.002763,0.0014935135135135
1.0,216.9,0.00299,0.0016162162162162
1.25,186.2,0.004238,0.0022908108108108
1.5,163.6,0.005674,0.003067027027027
1.75,146.4,0.007292,0.0039416216216216
2.0,132.7,0.009088,0.0049124324324324
2.25,121.6,0.01106,0.0059783783783783
2.5,112.3,0.0132,0.0071351351351351
2.75,104.5,0.01551,0.0083837837837837
3.0,97.81,0.01798,0.0097189189189189
3.5,86.89,0.02342,0.0126594594594594
4.0,78.32,0.02949,0.0159405405405405
4.5,71.41,0.03618,0.0195567567567567
5.0,65.72,0.04349,0.0235081081081081
5.5,60.94,0.05139,0.0277783783783783
6.0,56.87,0.05989,0.0323729729729729
6.5,53.34,0.06898,0.0372864864864864
7.0,50.27,0.07864,0.0425081081081081
7.5,47.56,0.08887,0.0480378378378378
8.0,45.15,0.09966,0.0538702702702702
8.5,42.99,0.111,0.06
9.0,41.05,0.1229,0.0664324324324324
9.5,39.29,0.1354,0.0731891891891891
10.0,37.69,0.1484,0.0802162162162162
12.5,31.44,0.2213,0.1196216216216216
15.0,27.09,0.3073,0.1661081081081081
17.5,23.88,0.4058,0.2193513513513513
20.0,21.41,0.5165,0.2791891891891891
25.0,17.84,0.7736,0.4181621621621621
27.5,16.51,0.9194,0.4969729729729729
30.0,15.38,1.076,0.5816216216216217
35.0,13.57,1.423,0.7691891891891892
40.0,12.18,1.813,0.98
45.0,11.08,2.244,1.212972972972973
50.0,10.18,2.715,1.4675675675675677
55.0,9.439,3.226,1.7437837837837835
60.0,8.811,3.775,2.0405405405405403
65.0,8.274,4.36,2.3567567567567567
70.0,7.809,4.983,2.6935135135135133
75.0,7.402,5.641,3.049189189189189
80.0,7.043,6.334,3.4237837837837835
85.0,6.723,7.06,3.816216216216216
90.0,6.438,7.821,4.227567567567567
95.0,6.18,8.614,4.656216216216216
100.0,5.947,9.439,5.102162162162162
125.0,5.047,14.02,7.578378378378377
150.0,4.435,19.32,10.443243243243243
175.0,3.991,25.28,13.664864864864866
200.0,3.654,31.83,17.205405405405404
225.0,3.39,38.95,21.054054054054056
250.0,3.177,46.57,25.17297297297297
275.0,3.002,54.67,29.55135135135135
300.0,2.856,63.21,34.167567567567566
350.0,2.627,81.5,44.05405405405405
400.0,2.454,101.2,54.7027027027027
450.0,2.321,122.2,66.05405405405405
500.0,2.215,144.3,78.0
550.0,2.129,167.3,90.43243243243244
600.0,2.059,191.2,103.35135135135134
650.0,2.0,215.8,116.64864864864865
700.0,1.95,241.2,130.37837837837836
750.0,1.907,267.1,144.3783783783784
800.0,1.871,293.6,158.7027027027027
850.0,1.839,320.5,173.24324324324323
900.0,1.812,347.9,188.05405405405403
950.0,1.788,375.7,203.08108108108107
1000.0,1.766,403.9,218.3243243243243
1500.0,1.649,698.6,377.6216216216216
2000.0,1.608,1006.0,543.7837837837837
2500.0,1.596,1319.0,712.9729729729729
3000.0,1.595,1632.0,882.1621621621621
4000.0,1.607,2257.0,1220.0
5000.0,1.625,2876.0,1554.5945945945946
6000.0,1.643,3488.0,1885.4054054054047
7000.0,1.66,4094.0,2212.972972972973
8000.0,1.676,4693.0,2536.7567567567567
9000.0,1.691,5287.0,2857.837837837838
10000.0,1.704,5876.0,3176.2162162162163
