Kinetic Energy MeV,Total Stp. Pow. MeV cm2/g,CSDA Range g/cm2,Thickness (cm)
0.001,127.8,1.072e-05,0.0057326203208556
0.0015,148.5,1.431e-05,0.0076524064171123
0.002,166.5,1.749e-05,0.0093529411764705
0.0025,182.6,2.035e-05,0.0108823529411764
0.003,197.3,2.299e-05,0.0122941176470588
0.004,223.9,2.773e-05,0.0148288770053475
0.005,247.6,3.198e-05,0.0171016042780748
0.006,269.3,3.584e-05,0.0191657754010695
0.007,289.4,3.942e-05,0.0210802139037433
0.008,308.1,4.277e-05,0.0228716577540106
0.009,325.9,4.593e-05,0.0245614973262032
0.01,342.7,4.892e-05,0.0261604278074866
0.0125,376.3,5.587e-05,0.0298770053475935
0.015,405.9,6.226e-05,0.0332941176470588
0.0175,432.5,6.822e-05,0.0364812834224598
0.02,456.7,7.384e-05,0.0394866310160427
0.0225,478.7,7.919e-05,0.0423475935828877
0.025,498.9,8.43e-05,0.0450802139037433
0.0275,517.5,8.922e-05,0.047711229946524
0.03,534.6,9.397e-05,0.0502513368983957
0.035,565.1,0.0001031,0.0551336898395721
0.04,591.1,0.0001117,0.0597326203208556
0.045,613.3,0.00012,0.0641711229946524
0.05,632.1,0.000128,0.0684491978609625
0.055,647.9,0.0001358,0.0726203208556149
0.06,661.0,0.0001435,0.0767379679144385
0.065,671.6,0.000151,0.0807486631016042
0.07,680.1,0.0001584,0.0847058823529411
0.075,686.6,0.0001657,0.0886096256684492
0.08,691.3,0.0001729,0.0924598930481283
0.085,694.4,0.0001802,0.0963636363636363
0.09,696.1,0.0001874,0.1002139037433155
0.095,696.6,0.0001945,0.1040106951871657
0.1,695.9,0.0002017,0.1078609625668449
0.125,679.9,0.000238,0.1272727272727273
0.15,651.3,0.0002755,0.1473262032085561
0.175,618.0,0.0003149,0.1683957219251337
0.2,584.2,0.0003565,0.1906417112299465
0.225,552.7,0.0004005,0.2141711229946524
0.25,524.1,0.000447,0.2390374331550802
0.275,498.3,0.0004959,0.2651871657754011
0.3,475.0,0.0005473,0.2926737967914439
0.35,435.1,0.0006574,0.3515508021390374
0.4,402.2,0.0007771,0.4155614973262032
0.45,374.7,0.000906,0.4844919786096257
0.5,351.3,0.001044,0.558288770053476
0.55,331.2,0.001191,0.6368983957219252
0.6,313.5,0.001346,0.7197860962566845
0.65,297.9,0.001509,0.8069518716577541
0.7,283.9,0.001681,0.8989304812834225
0.75,271.4,0.001862,0.9957219251336898
0.8,260.0,0.00205,1.0962566844919788
0.85,249.8,0.002246,1.2010695187165776
0.9,240.4,0.00245,1.3101604278074863
0.95,231.8,0.002662,1.423529411764706
1.0,223.9,0.002882,1.5411764705882354
1.25,192.0,0.004091,2.1877005347593586
1.5,169.1,0.005482,2.931550802139037
1.75,151.5,0.007047,3.768449197860963
2.0,137.6,0.008782,4.696256684491979
2.25,126.3,0.01068,5.711229946524065
2.5,116.9,0.01274,6.81283422459893
2.75,109.0,0.01496,8.0
3.0,102.1,0.01733,9.267379679144389
3.5,90.97,0.02253,12.04812834224599
4.0,82.21,0.02832,15.14438502673797
4.5,75.13,0.03468,18.545454545454547
5.0,69.28,0.04162,22.25668449197861
5.5,64.36,0.04912,26.267379679144383
6.0,60.14,0.05716,30.5668449197861
6.5,56.49,0.06574,35.15508021390375
7.0,53.3,0.07486,40.032085561497325
7.5,50.48,0.0845,45.18716577540108
8.0,47.97,0.09467,50.62566844919787
8.5,45.72,0.1053,56.31016042780749
9.0,43.69,0.1165,62.29946524064172
9.5,41.85,0.1282,68.55614973262033
10.0,40.17,0.1404,75.08021390374331
12.5,33.6,0.2088,111.6577540106952
15.0,29.01,0.2891,154.59893048128345
17.5,25.62,0.381,203.7433155080214
20.0,23.0,0.4842,258.93048128342247
25.0,19.2,0.7232,386.7379679144385
27.5,17.78,0.8586,459.144385026738
30.0,16.57,1.004,536.8983957219251
35.0,14.64,1.326,709.0909090909091
40.0,13.15,1.687,902.1390374331552
45.0,11.97,2.086,1115.5080213903743
50.0,11.01,2.522,1348.663101604278
55.0,10.22,2.994,1601.0695187165777
60.0,9.541,3.5,1871.6577540106955
65.0,8.964,4.041,2160.9625668449203
70.0,8.464,4.616,2468.4491978609626
75.0,8.026,5.223,2793.048128342246
80.0,7.639,5.861,3134.224598930481
85.0,7.295,6.531,3492.513368983957
90.0,6.987,7.232,3867.379679144385
95.0,6.71,7.962,4257.754010695187
100.0,6.459,8.722,4664.171122994652
125.0,5.489,12.94,6919.786096256685
150.0,4.828,17.81,9524.064171122996
175.0,4.349,23.28,12449.197860962568
200.0,3.985,29.29,15663.101604278076
225.0,3.7,35.81,19149.732620320858
250.0,3.471,42.79,22882.352941176472
275.0,3.282,50.21,26850.267379679142
300.0,3.125,58.02,31026.737967914443
350.0,2.878,74.72,39957.2192513369
400.0,2.693,92.71,49577.54010695187
450.0,2.55,111.8,59786.09625668449
500.0,2.437,131.9,70534.75935828878
550.0,2.346,152.8,81711.22994652408
600.0,2.271,174.5,93315.5080213904
650.0,2.208,196.8,105240.64171122995
700.0,2.156,219.7,117486.63101604278
750.0,2.112,243.2,130053.47593582889
800.0,2.074,267.1,142834.2245989305
850.0,2.041,291.4,155828.87700534755
900.0,2.013,316.1,169037.43315508025
950.0,1.988,341.0,182352.9411764706
1000.0,1.967,366.3,195882.35294117648
1500.0,1.854,629.7,336737.9679144385
2000.0,1.824,902.1,482406.4171122995
2500.0,1.822,1177.0,629411.7647058824
3000.0,1.832,1450.0,775401.0695187167
4000.0,1.865,1991.0,1064705.8823529412
5000.0,1.902,2522.0,1348663.1016042782
6000.0,1.938,3043.0,1627272.7272727273
7000.0,1.971,3555.0,1901069.5187165777
8000.0,2.002,4058.0,2170053.475935829
9000.0,2.03,4554.0,2435294.117647059
10000.0,2.057,5044.0,2697326.2032085564
