Kinetic Energy MeV,Total Stp. Pow. MeV cm2/g,CSDA Range g/cm2,Thickness (cm)
0.001,160.0,8.054e-06,6.5479674796747965e-06
0.0015,184.9,1.094e-05,8.894308943089432e-06
0.002,206.8,1.349e-05,1.0967479674796748e-05
0.0025,226.7,1.58e-05,1.2845528455284554e-05
0.003,244.9,1.792e-05,1.4569105691056912e-05
0.004,276.0,2.176e-05,1.7691056910569106e-05
0.005,304.1,2.52e-05,2.048780487804878e-05
0.006,329.8,2.836e-05,2.305691056910569e-05
0.007,353.5,3.128e-05,2.5430894308943088e-05
0.008,375.4,3.403e-05,2.7666666666666664e-05
0.009,395.7,3.662e-05,2.977235772357724e-05
0.01,414.9,3.909e-05,3.178048780487805e-05
0.0125,453.3,4.484e-05,3.645528455284553e-05
0.015,486.5,5.016e-05,4.078048780487805e-05
0.0175,515.8,5.515e-05,4.483739837398374e-05
0.02,542.0,5.987e-05,4.867479674796748e-05
0.0225,565.7,6.439e-05,5.234959349593496e-05
0.025,587.0,6.872e-05,5.5869918699187e-05
0.0275,606.2,7.291e-05,5.927642276422765e-05
0.03,623.6,7.698e-05,6.258536585365854e-05
0.035,654.4,8.48e-05,6.894308943089431e-05
0.04,680.5,9.229e-05,7.503252032520325e-05
0.045,702.4,9.952e-05,8.091056910569105e-05
0.05,720.4,0.0001065,8.658536585365854e-05
0.055,734.8,0.0001134,9.219512195121952e-05
0.06,746.0,0.0001202,9.772357723577236e-05
0.065,754.5,0.0001268,0.0001030894308943
0.07,760.7,0.0001334,0.0001084552845528
0.075,764.7,0.00014,0.0001138211382113
0.08,767.0,0.0001465,0.0001191056910569
0.085,767.6,0.000153,0.0001243902439024
0.09,766.8,0.0001595,0.0001296747967479
0.095,764.8,0.0001661,0.0001350406504065
0.1,761.8,0.0001726,0.000140325203252
0.125,735.4,0.000206,0.0001674796747967
0.15,699.1,0.0002408,0.0001957723577235
0.175,660.1,0.0002776,0.0002256910569105
0.2,622.1,0.0003166,0.0002573983739837
0.225,586.6,0.000358,0.0002910569105691
0.25,554.4,0.0004019,0.0003267479674796
0.275,525.4,0.0004482,0.0003643902439024
0.3,499.4,0.000497,0.0004040650406504
0.35,452.9,0.0006023,0.0004896747967479
0.4,414.3,0.0007178,0.0005835772357723
0.45,383.2,0.0008435,0.0006857723577235
0.5,358.3,0.0009785,0.0007955284552845
0.55,337.9,0.001122,0.0009121951219512
0.6,320.0,0.001274,0.0010357723577235
0.65,304.1,0.001435,0.0011666666666666
0.7,290.0,0.001603,0.0013032520325203
0.75,277.3,0.00178,0.0014471544715447
0.8,265.8,0.001964,0.0015967479674796
0.85,255.4,0.002156,0.0017528455284552
0.9,245.8,0.002355,0.0019146341463414
0.95,237.1,0.002563,0.0020837398373983
1.0,229.0,0.002777,0.0022577235772357
1.25,196.5,0.00396,0.0032195121951219
1.5,173.1,0.005319,0.0043243902439024
1.75,155.1,0.006847,0.0055666666666666
2.0,140.9,0.00854,0.0069430894308943
2.25,129.4,0.01039,0.0084471544715447
2.5,119.8,0.0124,0.0100813008130081
2.75,111.6,0.01457,0.0118455284552845
3.0,104.6,0.01688,0.0137235772357723
3.5,93.22,0.02195,0.0178455284552845
4.0,84.25,0.0276,0.0224390243902439
4.5,77.0,0.03382,0.0274959349593495
5.0,71.0,0.04059,0.033
5.5,65.95,0.0479,0.0389430894308943
6.0,61.64,0.05575,0.0453252032520325
6.5,57.9,0.06412,0.052130081300813
7.0,54.62,0.07302,0.0593658536585365
7.5,51.73,0.08243,0.0670162601626016
8.0,49.16,0.09235,0.0750813008130081
8.5,46.86,0.1028,0.0835772357723577
9.0,44.78,0.1137,0.0924390243902439
9.5,42.89,0.1251,0.1017073170731707
10.0,41.17,0.137,0.1113821138211382
12.5,34.44,0.2037,0.1656097560975609
15.0,29.74,0.2821,0.2293495934959349
17.5,26.26,0.3717,0.3021951219512195
20.0,23.58,0.4723,0.3839837398373983
25.0,19.69,0.7055,0.5735772357723578
27.5,18.23,0.8376,0.6809756097560976
30.0,16.99,0.9797,0.7965040650406504
35.0,15.01,1.294,1.0520325203252032
40.0,13.49,1.646,1.338211382113821
45.0,12.28,2.035,1.6544715447154472
50.0,11.29,2.46,2.0
55.0,10.48,2.92,2.3739837398373984
60.0,9.785,3.414,2.775609756097561
65.0,9.193,3.941,3.2040650406504065
70.0,8.68,4.501,3.6593495934959352
75.0,8.231,5.093,4.140650406504065
80.0,7.835,5.716,4.647154471544716
85.0,7.482,6.369,5.178048780487805
90.0,7.167,7.052,5.733333333333333
95.0,6.882,7.765,6.3130081300813
100.0,6.624,8.505,6.914634146341464
125.0,5.63,12.62,10.260162601626016
150.0,4.953,17.37,14.121951219512196
175.0,4.461,22.7,18.455284552845526
200.0,4.088,28.56,23.21951219512195
225.0,3.796,34.91,28.38211382113821
250.0,3.561,41.72,33.91869918699187
275.0,3.367,48.95,39.79674796747968
300.0,3.206,56.56,45.983739837398375
350.0,2.952,72.84,59.21951219512196
400.0,2.763,90.37,73.47154471544717
450.0,2.616,109.0,88.6178861788618
500.0,2.501,128.5,104.47154471544717
550.0,2.407,148.9,121.0569105691057
600.0,2.33,170.1,138.29268292682926
650.0,2.266,191.8,155.9349593495935
700.0,2.213,214.2,174.1463414634146
750.0,2.167,237.0,192.6829268292683
800.0,2.128,260.3,211.6260162601626
850.0,2.093,284.0,230.89430894308944
900.0,2.063,308.1,250.4878048780488
950.0,2.036,332.5,270.3252032520325
1000.0,2.013,357.1,290.32520325203257
1500.0,1.883,615.5,500.4065040650407
2000.0,1.837,884.9,719.430894308943
2500.0,1.822,1158.0,941.4634146341464
3000.0,1.82,1433.0,1165.040650406504
4000.0,1.832,1981.0,1610.5691056910568
5000.0,1.851,2524.0,2052.032520325203
6000.0,1.871,3061.0,2488.6178861788617
7000.0,1.891,3593.0,2921.1382113821137
8000.0,1.909,4119.0,3348.7804878048782
9000.0,1.927,4641.0,3773.170731707317
10000.0,1.943,5157.0,4192.682926829269
