Kinetic Energy MeV,Total Stp. Pow. MeV cm2/g,CSDA Range g/cm2,Thickness (cm)
0.001,279.9,4.193e-06,0.0035533898305084
0.0015,319.4,5.852e-06,0.0049593220338983
0.002,355.2,7.335e-06,0.0062161016949152
0.0025,388.2,8.681e-06,0.0073567796610169
0.003,418.7,9.92e-06,0.0084067796610169
0.004,468.7,1.217e-05,0.0103135593220338
0.005,514.4,1.421e-05,0.0120423728813559
0.006,556.2,1.608e-05,0.0136271186440677
0.007,594.9,1.781e-05,0.015093220338983
0.008,629.9,1.944e-05,0.0164745762711864
0.009,662.2,2.099e-05,0.0177881355932203
0.01,692.4,2.247e-05,0.0190423728813559
0.0125,752.8,2.592e-05,0.0219661016949152
0.015,803.7,2.914e-05,0.0246949152542372
0.0175,847.8,3.216e-05,0.0272542372881355
0.02,886.7,3.504e-05,0.0296949152542372
0.0225,921.1,3.781e-05,0.0320423728813559
0.025,951.3,4.048e-05,0.0343050847457627
0.0275,977.7,4.307e-05,0.0365
0.03,1001.0,4.56e-05,0.0386440677966101
0.035,1041.0,5.049e-05,0.0427881355932203
0.04,1075.0,5.521e-05,0.0467881355932203
0.045,1102.0,5.98e-05,0.0506779661016949
0.05,1123.0,6.43e-05,0.0544915254237288
0.055,1138.0,6.872e-05,0.0582372881355932
0.06,1148.0,7.309e-05,0.0619406779661017
0.065,1153.0,7.744e-05,0.0656271186440678
0.07,1155.0,8.177e-05,0.0692966101694915
0.075,1154.0,8.61e-05,0.0729661016949152
0.08,1150.0,9.044e-05,0.0766440677966101
0.085,1144.0,9.48e-05,0.0803389830508474
0.09,1137.0,9.918e-05,0.0840508474576271
0.095,1128.0,0.0001036,0.0877966101694915
0.1,1117.0,0.000108,0.0915254237288135
0.125,1054.0,0.0001311,0.1111016949152542
0.15,982.8,0.0001556,0.131864406779661
0.175,913.9,0.000182,0.1542372881355932
0.2,850.7,0.0002104,0.1783050847457627
0.225,796.5,0.0002408,0.2040677966101694
0.25,749.8,0.0002731,0.2314406779661017
0.275,709.1,0.0003074,0.2605084745762712
0.3,673.1,0.0003436,0.291186440677966
0.35,612.3,0.0004216,0.3572881355932203
0.4,562.6,0.0005069,0.4295762711864406
0.45,521.1,0.0005993,0.5078813559322034
0.5,485.8,0.0006988,0.5922033898305085
0.55,455.3,0.0008052,0.6823728813559321
0.6,428.8,0.0009184,0.7783050847457627
0.65,405.8,0.001038,0.8796610169491526
0.7,385.5,0.001165,0.9872881355932204
0.75,367.4,0.001298,1.1
0.8,351.1,0.001437,1.2177966101694917
0.85,336.5,0.001582,1.340677966101695
0.9,323.0,0.001734,1.4694915254237289
0.95,310.8,0.001892,1.6033898305084746
1.0,299.5,0.002056,1.7423728813559325
1.25,254.8,0.002964,2.5118644067796607
1.5,222.9,0.004016,3.403389830508474
1.75,198.7,0.005206,4.41186440677966
2.0,179.7,0.006531,5.534745762711864
2.25,164.3,0.007988,6.769491525423729
2.5,151.6,0.009574,8.113559322033897
2.75,140.9,0.01129,9.567796610169491
3.0,131.7,0.01312,11.118644067796607
3.5,116.8,0.01716,14.542372881355933
4.0,105.1,0.02168,18.372881355932204
4.5,95.78,0.02667,22.601694915254235
5.0,88.08,0.03212,27.220338983050848
5.5,81.61,0.03802,32.220338983050844
6.0,76.11,0.04437,37.60169491525424
6.5,71.36,0.05116,43.35593220338983
7.0,67.21,0.05838,49.47457627118644
7.5,63.56,0.06603,55.95762711864407
8.0,60.32,0.07411,62.80508474576271
8.5,57.42,0.08261,70.00847457627118
9.0,54.81,0.09153,77.5677966101695
9.5,52.45,0.1009,85.50847457627118
10.0,50.3,0.1106,93.72881355932203
12.5,41.9,0.1653,140.08474576271186
15.0,36.07,0.2298,194.7457627118644
17.5,31.78,0.3038,257.45762711864404
20.0,28.47,0.3871,328.0508474576271
25.0,23.7,0.5805,491.9491525423729
27.5,21.92,0.6902,584.9152542372881
30.0,20.41,0.8085,685.1694915254237
35.0,18.0,1.07,906.7796610169491
40.0,16.15,1.364,1155.9322033898306
45.0,14.68,1.689,1431.3559322033898
50.0,13.49,2.045,1733.050847457627
55.0,12.5,2.43,2059.322033898305
60.0,11.67,2.844,2410.1694915254234
65.0,10.95,3.287,2785.593220338983
70.0,10.34,3.757,3183.898305084745
75.0,9.796,4.254,3605.084745762712
80.0,9.319,4.777,4048.3050847457625
85.0,8.895,5.327,4514.406779661017
90.0,8.516,5.901,5000.847457627118
95.0,8.174,6.501,5509.322033898305
100.0,7.865,7.125,6038.135593220339
125.0,6.673,10.59,8974.57627118644
150.0,5.862,14.6,12372.881355932202
175.0,5.275,19.11,16194.915254237289
200.0,4.83,24.07,20398.305084745763
225.0,4.481,29.45,24957.627118644064
250.0,4.201,35.21,29838.98305084745
275.0,3.971,41.34,35033.898305084746
300.0,3.778,47.8,40508.47457627118
350.0,3.476,61.62,52220.338983050846
400.0,3.251,76.51,64838.983050847455
450.0,3.076,92.34,78254.2372881356
500.0,2.938,109.0,92372.8813559322
550.0,2.827,126.3,107033.89830508472
600.0,2.735,144.3,122288.13559322034
650.0,2.659,162.9,138050.84745762713
700.0,2.595,181.9,154152.54237288135
750.0,2.541,201.4,170677.9661016949
800.0,2.494,221.3,187542.372881356
850.0,2.454,241.5,204661.0169491525
900.0,2.419,262.0,222033.8983050848
950.0,2.389,282.8,239661.0169491525
1000.0,2.363,303.9,257542.3728813559
1500.0,2.222,523.4,443559.3220338983
2000.0,2.182,750.9,636355.9322033898
2500.0,2.177,980.6,831016.9491525424
3000.0,2.187,1210.0,1025423.7288135592
4000.0,2.222,1664.0,1410169.4915254237
5000.0,2.263,2110.0,1788135.593220339
6000.0,2.303,2548.0,2159322.033898305
7000.0,2.34,2978.0,2523728.8135593217
8000.0,2.375,3403.0,2883898.3050847454
9000.0,2.408,3821.0,3238135.5932203387
10000.0,2.438,4233.0,3587288.13559322
