Kinetic Energy MeV,Total Stp. Pow. MeV cm2/g,CSDA Range g/cm2,Thickness (cm)
0.001,190.6,6.087e-06,5.483783783783783e-06
0.0015,216.1,8.532e-06,7.686486486486487e-06
0.002,239.4,1.073e-05,9.666666666666668e-06
0.0025,260.8,1.273e-05,1.1468468468468468e-05
0.003,280.7,1.458e-05,1.3135135135135131e-05
0.004,316.6,1.792e-05,1.6144144144144144e-05
0.005,349.0,2.093e-05,1.8855855855855856e-05
0.006,378.7,2.368e-05,2.133333333333333e-05
0.007,406.3,2.623e-05,2.363063063063063e-05
0.008,432.1,2.861e-05,2.577477477477477e-05
0.009,456.4,3.086e-05,2.78018018018018e-05
0.01,479.4,3.3e-05,2.972972972972973e-05
0.0125,524.8,3.797e-05,3.42072072072072e-05
0.015,564.4,4.256e-05,3.834234234234234e-05
0.0175,599.5,4.686e-05,4.221621621621621e-05
0.02,630.9,5.092e-05,4.587387387387387e-05
0.0225,659.2,5.479e-05,4.936036036036036e-05
0.025,684.8,5.851e-05,5.2711711711711705e-05
0.0275,708.0,6.21e-05,5.594594594594594e-05
0.03,729.0,6.558e-05,5.908108108108109e-05
0.035,765.3,7.227e-05,6.51081081081081e-05
0.04,795.3,7.867e-05,7.087387387387387e-05
0.045,819.7,8.486e-05,7.645045045045045e-05
0.05,839.3,9.089e-05,8.188288288288288e-05
0.055,854.5,9.679e-05,8.719819819819818e-05
0.06,866.0,0.0001026,9.243243243243244e-05
0.065,874.2,0.0001083,9.756756756756757e-05
0.07,879.5,0.000114,0.0001027027027027
0.075,882.4,0.0001197,0.0001078378378378
0.08,883.0,0.0001254,0.0001129729729729
0.085,881.8,0.000131,0.000118018018018
0.09,879.0,0.0001367,0.0001231531531531
0.095,874.8,0.0001424,0.0001282882882882
0.1,869.5,0.0001482,0.0001335135135135
0.125,830.8,0.0001775,0.0001599099099099
0.15,783.0,0.0002085,0.0001878378378378
0.175,734.4,0.0002415,0.0002175675675675
0.2,688.9,0.0002766,0.0002491891891891
0.225,648.7,0.0003141,0.0002829729729729
0.25,613.5,0.0003537,0.0003186486486486
0.275,582.4,0.0003955,0.0003563063063063
0.3,554.8,0.0004395,0.0003959459459459
0.35,507.6,0.0005339,0.0004809909909909
0.4,468.9,0.0006365,0.0005734234234234
0.45,436.4,0.0007471,0.000673063063063
0.5,408.7,0.0008656,0.0007798198198198
0.55,384.8,0.0009917,0.0008934234234234
0.6,363.8,0.001125,0.0010135135135135
0.65,345.3,0.001267,0.0011414414414414
0.7,328.7,0.001415,0.0012747747747747
0.75,313.9,0.001571,0.0014153153153153
0.8,300.5,0.001734,0.0015621621621621
0.85,288.4,0.001903,0.0017144144144144
0.9,277.4,0.00208,0.0018738738738738
0.95,267.2,0.002264,0.0020396396396396
1.0,257.9,0.002454,0.0022108108108108
1.25,220.5,0.003506,0.0031585585585585
1.5,193.6,0.004719,0.0042513513513513
1.75,173.1,0.006087,0.0054837837837837
2.0,157.0,0.007606,0.0068522522522522
2.25,143.9,0.009271,0.0083522522522522
2.5,133.0,0.01108,0.0099819819819819
2.75,123.9,0.01303,0.0117387387387387
3.0,116.0,0.01511,0.0136126126126126
3.5,103.2,0.01969,0.0177387387387387
4.0,93.1,0.0248,0.0223423423423423
4.5,85.0,0.03043,0.0274144144144144
5.0,78.31,0.03657,0.0329459459459459
5.5,72.69,0.0432,0.0389189189189189
6.0,67.88,0.05032,0.0453333333333333
6.5,63.73,0.05793,0.0521891891891891
7.0,60.09,0.06601,0.0594684684684684
7.5,56.88,0.07457,0.0671801801801801
8.0,54.03,0.08359,0.0753063063063063
8.5,51.48,0.09307,0.0838468468468468
9.0,49.18,0.103,0.0927927927927927
9.5,47.09,0.1134,0.1021621621621621
10.0,45.19,0.1242,0.1118918918918918
12.5,37.75,0.1851,0.1667567567567567
15.0,32.57,0.2566,0.2311711711711711
17.5,28.74,0.3385,0.3049549549549549
20.0,25.79,0.4304,0.3877477477477477
25.0,21.51,0.6437,0.5799099099099099
27.5,19.91,0.7646,0.6888288288288287
30.0,18.56,0.8948,0.8061261261261261
35.0,16.38,1.182,1.0648648648648646
40.0,14.71,1.505,1.3558558558558556
45.0,13.39,1.861,1.6765765765765763
50.0,12.31,2.251,2.027927927927928
55.0,11.42,2.673,2.408108108108108
60.0,10.66,3.127,2.8171171171171165
65.0,10.01,3.611,3.253153153153153
70.0,9.454,4.125,3.716216216216216
75.0,8.963,4.669,4.206306306306305
80.0,8.53,5.241,4.721621621621621
85.0,8.145,5.841,5.262162162162162
90.0,7.8,6.468,5.827027027027026
95.0,7.49,7.123,6.417117117117117
100.0,7.208,7.803,7.029729729729729
125.0,6.123,11.58,10.432432432432432
150.0,5.384,15.95,14.369369369369368
175.0,4.848,20.85,18.783783783783782
200.0,4.442,26.25,23.64864864864865
225.0,4.123,32.1,28.91891891891892
250.0,3.867,38.36,34.55855855855855
275.0,3.657,45.02,40.55855855855856
300.0,3.481,52.03,46.87387387387387
350.0,3.205,67.03,60.387387387387385
400.0,2.998,83.18,74.93693693693693
450.0,2.839,100.3,90.36036036036036
500.0,2.712,118.4,106.66666666666666
550.0,2.61,137.2,123.6036036036036
600.0,2.527,156.6,141.08108108108107
650.0,2.457,176.7,159.18918918918916
700.0,2.399,197.3,177.74774774774775
750.0,2.349,218.4,196.7567567567568
800.0,2.307,239.9,216.1261261261261
850.0,2.27,261.7,235.7657657657657
900.0,2.237,283.9,255.7657657657657
950.0,2.209,306.4,276.036036036036
1000.0,2.183,329.2,296.57657657657654
1500.0,2.041,567.4,511.1711711711711
2000.0,1.991,815.9,735.045045045045
2500.0,1.974,1068.0,962.162162162162
3000.0,1.971,1322.0,1190.990990990991
4000.0,1.982,1828.0,1646.8468468468468
5000.0,2.0,2331.0,2100.0
6000.0,2.021,2828.0,2547.747747747748
7000.0,2.041,3320.0,2990.9909909909907
8000.0,2.06,3808.0,3430.6306306306305
9000.0,2.078,4291.0,3865.7657657657655
10000.0,2.094,4771.0,4298.198198198198
