Kinetic Energy MeV,Total Stp. Pow. MeV cm2/g,CSDA Range g/cm2,Thickness (cm)
0.001,183.4,6.233e-06,5.993269230769231e-06
0.0015,207.0,8.78e-06,8.442307692307693e-06
0.002,228.8,1.108e-05,1.0653846153846154e-05
0.0025,248.8,1.317e-05,1.2663461538461538e-05
0.003,267.6,1.511e-05,1.4528846153846152e-05
0.004,301.6,1.862e-05,1.7903846153846156e-05
0.005,332.4,2.178e-05,2.094230769230769e-05
0.006,360.6,2.466e-05,2.371153846153846e-05
0.007,386.9,2.734e-05,2.6288461538461536e-05
0.008,411.5,2.984e-05,2.869230769230769e-05
0.009,434.7,3.221e-05,3.0971153846153846e-05
0.01,456.8,3.445e-05,3.3125e-05
0.0125,500.4,3.967e-05,3.814423076923077e-05
0.015,538.5,4.448e-05,4.276923076923077e-05
0.0175,572.5,4.898e-05,4.7096153846153845e-05
0.02,603.1,5.323e-05,5.118269230769231e-05
0.0225,630.7,5.728e-05,5.507692307692308e-05
0.025,655.8,6.117e-05,5.881730769230769e-05
0.0275,678.5,6.492e-05,6.242307692307691e-05
0.03,699.3,6.854e-05,6.590384615384615e-05
0.035,735.4,7.551e-05,7.260576923076922e-05
0.04,765.2,8.217e-05,7.900961538461538e-05
0.045,789.7,8.86e-05,8.519230769230769e-05
0.05,809.4,9.485e-05,9.120192307692308e-05
0.055,825.0,0.000101,9.711538461538462e-05
0.06,836.9,0.000107,0.0001028846153846
0.065,845.5,0.0001129,0.0001085576923076
0.07,851.3,0.0001188,0.0001142307692307
0.075,854.6,0.0001247,0.0001199038461538
0.08,855.8,0.0001305,0.0001254807692307
0.085,855.1,0.0001364,0.0001311538461538
0.09,852.7,0.0001422,0.0001367307692307
0.095,848.9,0.0001481,0.0001424038461538
0.1,843.9,0.000154,0.0001480769230769
0.125,807.1,0.0001842,0.0001771153846153
0.15,761.0,0.0002161,0.0002077884615384
0.175,714.0,0.00025,0.0002403846153846
0.2,670.1,0.0002862,0.0002751923076923
0.225,632.8,0.0003246,0.0003121153846153
0.25,600.8,0.0003652,0.0003511538461538
0.275,572.8,0.0004078,0.0003921153846153
0.3,547.7,0.0004525,0.0004350961538461
0.35,504.5,0.0005477,0.0005266346153846
0.4,468.2,0.0006506,0.0006255769230769
0.45,436.9,0.0007612,0.000731923076923
0.5,409.7,0.0008795,0.000845673076923
0.55,385.7,0.001005,0.0009663461538461
0.6,364.7,0.001139,0.0010951923076923
0.65,346.1,0.00128,0.0012307692307692
0.7,329.5,0.001428,0.0013730769230769
0.75,314.6,0.001583,0.0015221153846153
0.8,301.2,0.001745,0.0016778846153846
0.85,289.1,0.001915,0.0018413461538461
0.9,278.0,0.002091,0.0020105769230769
0.95,267.8,0.002275,0.0021875
1.0,258.5,0.002465,0.0023701923076923
1.25,221.0,0.003515,0.0033798076923076
1.5,194.0,0.004725,0.0045432692307692
1.75,173.5,0.00609,0.0058557692307692
2.0,157.3,0.007605,0.0073124999999999
2.25,144.2,0.009267,0.0089105769230769
2.5,133.3,0.01107,0.0106442307692307
2.75,124.1,0.01302,0.0125192307692307
3.0,116.2,0.0151,0.0145192307692307
3.5,103.4,0.01967,0.0189134615384615
4.0,93.29,0.02477,0.0238173076923076
4.5,85.17,0.03039,0.0292211538461538
5.0,78.47,0.03651,0.0351057692307692
5.5,72.84,0.04313,0.0414711538461538
6.0,68.02,0.05024,0.0483076923076923
6.5,63.86,0.05783,0.0556057692307692
7.0,60.22,0.06589,0.0633557692307692
7.5,57.0,0.07443,0.0715673076923076
8.0,54.15,0.08343,0.0802211538461538
8.5,51.59,0.0929,0.089326923076923
9.0,49.28,0.1028,0.0988461538461538
9.5,47.19,0.1132,0.1088461538461538
10.0,45.29,0.124,0.1192307692307692
12.5,37.84,0.1847,0.1775961538461538
15.0,32.64,0.256,0.2461538461538461
17.5,28.81,0.3377,0.3247115384615384
20.0,25.85,0.4295,0.4129807692307692
25.0,21.56,0.6423,0.6175961538461539
27.5,19.96,0.7629,0.7335576923076923
30.0,18.6,0.8928,0.8584615384615385
35.0,16.42,1.179,1.133653846153846
40.0,14.75,1.501,1.4432692307692303
45.0,13.42,1.857,1.785576923076923
50.0,12.34,2.246,2.1596153846153845
55.0,11.45,2.667,2.5644230769230765
60.0,10.69,3.119,2.9990384615384618
65.0,10.04,3.602,3.463461538461538
70.0,9.477,4.115,3.956730769230769
75.0,8.986,4.657,4.477884615384616
80.0,8.552,5.228,5.026923076923077
85.0,8.166,5.826,5.601923076923076
90.0,7.82,6.452,6.203846153846154
95.0,7.509,7.105,6.831730769230769
100.0,7.227,7.784,7.484615384615384
125.0,6.139,11.55,11.105769230769232
150.0,5.398,15.91,15.298076923076923
175.0,4.861,20.8,20.0
200.0,4.453,26.18,25.173076923076923
225.0,4.134,32.02,30.78846153846154
250.0,3.877,38.27,36.79807692307693
275.0,3.666,44.9,43.17307692307692
300.0,3.49,51.9,49.90384615384615
350.0,3.213,66.86,64.28846153846153
400.0,3.006,82.97,79.77884615384615
450.0,2.846,100.1,96.25
500.0,2.72,118.1,113.55769230769228
550.0,2.617,136.8,131.53846153846155
600.0,2.533,156.2,150.19230769230768
650.0,2.464,176.3,169.51923076923077
700.0,2.405,196.8,189.23076923076923
750.0,2.355,217.8,209.42307692307693
800.0,2.313,239.2,230.0
850.0,2.276,261.0,250.96153846153845
900.0,2.244,283.2,272.30769230769226
950.0,2.216,305.6,293.84615384615387
1000.0,2.191,328.3,315.6730769230769
1500.0,2.05,565.6,543.8461538461538
2000.0,2.0,813.1,781.8269230769231
2500.0,1.983,1064.0,1023.0769230769232
3000.0,1.98,1317.0,1266.3461538461538
4000.0,1.991,1821.0,1750.9615384615383
5000.0,2.01,2321.0,2231.730769230769
6000.0,2.031,2816.0,2707.692307692308
7000.0,2.051,3306.0,3178.846153846154
8000.0,2.07,3791.0,3645.192307692308
9000.0,2.088,4272.0,4107.692307692308
10000.0,2.105,4749.0,4566.346153846153
