Kinetic Energy MeV,Total Stp. Pow. MeV cm2/g,CSDA Range g/cm2,Thickness (cm)
0.001,214.7,5.659e-06,3.058918918918919e-06
0.0015,246.3,7.816e-06,4.224864864864864e-06
0.002,274.6,9.737e-06,5.263243243243243e-06
0.0025,300.4,1.148e-05,6.205405405405405e-06
0.003,324.2,1.308e-05,7.07027027027027e-06
0.004,363.5,1.598e-05,8.637837837837837e-06
0.005,399.4,1.861e-05,1.0059459459459458e-05
0.006,432.2,2.101e-05,1.1356756756756756e-05
0.007,462.4,2.325e-05,1.2567567567567568e-05
0.008,489.9,2.535e-05,1.37027027027027e-05
0.009,515.3,2.734e-05,1.4778378378378378e-05
0.01,539.1,2.923e-05,1.5799999999999998e-05
0.0125,587.0,3.367e-05,1.82e-05
0.015,627.7,3.778e-05,2.0421621621621625e-05
0.0175,663.2,4.165e-05,2.251351351351352e-05
0.02,694.8,4.533e-05,2.45027027027027e-05
0.0225,722.9,4.886e-05,2.641081081081081e-05
0.025,747.9,5.226e-05,2.824864864864865e-05
0.0275,770.0,5.555e-05,3.0027027027027025e-05
0.03,789.8,5.876e-05,3.176216216216216e-05
0.035,824.4,6.495e-05,3.510810810810811e-05
0.04,853.7,7.091e-05,3.8329729729729725e-05
0.045,877.9,7.668e-05,4.144864864864865e-05
0.05,897.2,8.231e-05,4.449189189189189e-05
0.055,911.8,8.784e-05,4.748108108108108e-05
0.06,922.4,9.329e-05,5.042702702702702e-05
0.065,929.6,9.868e-05,5.334054054054054e-05
0.07,934.0,0.000104,5.621621621621621e-05
0.075,935.8,0.0001094,5.913513513513513e-05
0.08,935.5,0.0001147,6.199999999999999e-05
0.085,933.4,0.0001201,6.491891891891892e-05
0.09,929.6,0.0001255,6.783783783783783e-05
0.095,924.5,0.0001308,7.070270270270271e-05
0.1,918.3,0.0001363,7.367567567567568e-05
0.125,875.7,0.0001641,8.87027027027027e-05
0.15,824.3,0.0001935,0.0001045945945945
0.175,772.3,0.0002249,0.0001215675675675
0.2,723.2,0.0002583,0.0001396216216216
0.225,676.9,0.0002941,0.0001589729729729
0.25,634.6,0.0003322,0.0001795675675675
0.275,596.9,0.0003728,0.0002015135135135
0.3,563.4,0.000416,0.0002248648648648
0.35,507.7,0.0005096,0.0002754594594594
0.4,463.9,0.0006128,0.0003312432432432
0.45,428.9,0.000725,0.0003918918918918
0.5,400.6,0.0008458,0.0004571891891891
0.55,377.0,0.0009745,0.0005267567567567
0.6,356.4,0.001111,0.0006005405405405
0.65,338.3,0.001255,0.0006783783783783
0.7,322.2,0.001407,0.0007605405405405
0.75,307.8,0.001565,0.0008459459459459
0.8,294.8,0.001731,0.0009356756756756
0.85,283.0,0.001905,0.0010297297297297
0.9,272.2,0.002085,0.001127027027027
0.95,262.3,0.002272,0.0012281081081081
1.0,253.2,0.002466,0.0013329729729729
1.25,216.8,0.003537,0.0019118918918918
1.5,190.5,0.00477,0.0025783783783783
1.75,170.5,0.00616,0.0033297297297297
2.0,154.6,0.007702,0.0041632432432432
2.25,141.8,0.009392,0.0050767567567567
2.5,131.1,0.01123,0.0060702702702702
2.75,122.1,0.0132,0.0071351351351351
3.0,114.3,0.01532,0.008281081081081
3.5,101.7,0.01997,0.0107945945945945
4.0,91.79,0.02515,0.0135945945945945
4.5,83.79,0.03086,0.016681081081081
5.0,77.19,0.03708,0.0200432432432432
5.5,71.64,0.04381,0.023681081081081
6.0,66.9,0.05104,0.0275891891891891
6.5,62.8,0.05876,0.0317621621621621
7.0,59.21,0.06696,0.0361945945945946
7.5,56.05,0.07564,0.0408864864864864
8.0,53.24,0.0848,0.0458378378378378
8.5,50.73,0.09442,0.0510378378378378
9.0,48.45,0.1045,0.0564864864864864
9.5,46.4,0.1151,0.0622162162162162
10.0,44.52,0.1261,0.0681621621621621
12.5,37.19,0.1878,0.1015135135135135
15.0,32.08,0.2604,0.1407567567567567
17.5,28.31,0.3435,0.1856756756756757
20.0,25.39,0.4369,0.2361621621621621
25.0,21.18,0.6535,0.3532432432432432
27.5,19.61,0.7763,0.4196216216216216
30.0,18.27,0.9085,0.491081081081081
35.0,16.13,1.2,0.6486486486486486
40.0,14.49,1.528,0.825945945945946
45.0,13.18,1.89,1.0216216216216216
50.0,12.12,2.286,1.2356756756756757
55.0,11.24,2.715,1.4675675675675677
60.0,10.5,3.176,1.7167567567567568
65.0,9.858,3.668,1.9827027027027029
70.0,9.306,4.19,2.264864864864865
75.0,8.823,4.742,2.563243243243244
80.0,8.397,5.323,2.877297297297297
85.0,8.018,5.933,3.207027027027027
90.0,7.678,6.57,3.5513513513513515
95.0,7.372,7.235,3.9108108108108106
100.0,7.095,7.927,4.284864864864865
125.0,6.027,11.77,6.362162162162162
150.0,5.3,16.2,8.756756756756756
175.0,4.772,21.19,11.454054054054057
200.0,4.372,26.67,14.416216216216217
225.0,4.058,32.61,17.627027027027026
250.0,3.806,38.98,21.070270270270267
275.0,3.599,45.74,24.724324324324325
300.0,3.426,52.86,28.57297297297297
350.0,3.154,68.1,36.81081081081081
400.0,2.951,84.51,45.68108108108108
450.0,2.794,101.9,55.08108108108108
500.0,2.67,120.3,65.02702702702702
550.0,2.569,139.4,75.35135135135135
600.0,2.487,159.2,86.05405405405405
650.0,2.418,179.6,97.08108108108108
700.0,2.361,200.5,108.37837837837836
750.0,2.312,221.9,119.94594594594594
800.0,2.269,243.7,131.7297297297297
850.0,2.232,266.0,143.78378378378378
900.0,2.199,288.5,155.94594594594594
950.0,2.17,311.4,168.3243243243243
1000.0,2.145,334.6,180.86486486486487
1500.0,2.004,577.2,312.0
2000.0,1.954,830.3,448.8108108108108
2500.0,1.937,1088.0,588.1081081081081
3000.0,1.934,1346.0,727.5675675675675
4000.0,1.945,1862.0,1006.4864864864865
5000.0,1.964,2374.0,1283.2432432432431
6000.0,1.985,2880.0,1556.7567567567569
7000.0,2.005,3381.0,1827.5675675675675
8000.0,2.024,3877.0,2095.6756756756754
9000.0,2.042,4369.0,2361.6216216216217
10000.0,2.059,4857.0,2625.4054054054054
