Kinetic Energy MeV,Total Stp. Pow. MeV cm2/g,CSDA Range g/cm2,Thickness (cm)
0.001,165.9,7.734e-06,5.604347826086958e-06
0.0015,192.8,1.05e-05,7.608695652173913e-06
0.002,216.5,1.295e-05,9.384057971014492e-06
0.0025,237.8,1.515e-05,1.0978260869565218e-05
0.003,257.3,1.717e-05,1.2442028985507247e-05
0.004,290.1,2.082e-05,1.5086956521739132e-05
0.005,319.7,2.41e-05,1.746376811594203e-05
0.006,346.7,2.71e-05,1.9637681159420293e-05
0.007,371.6,2.989e-05,2.165942028985508e-05
0.008,394.3,3.25e-05,2.355072463768116e-05
0.009,415.4,3.497e-05,2.534057971014493e-05
0.01,435.2,3.732e-05,2.704347826086957e-05
0.0125,474.8,4.281e-05,3.102173913043478e-05
0.015,508.5,4.789e-05,3.470289855072464e-05
0.0175,538.1,5.267e-05,3.816666666666667e-05
0.02,564.4,5.72e-05,4.1449275362318846e-05
0.0225,587.9,6.154e-05,4.459420289855072e-05
0.025,608.8,6.572e-05,4.762318840579711e-05
0.0275,627.3,6.976e-05,5.055072463768116e-05
0.03,644.0,7.369e-05,5.339855072463768e-05
0.035,672.9,8.128e-05,5.889855072463769e-05
0.04,696.9,8.858e-05,6.418840579710145e-05
0.045,716.5,9.565e-05,6.931159420289856e-05
0.05,731.9,0.0001026,7.434782608695653e-05
0.055,743.3,0.0001093,7.920289855072465e-05
0.06,751.4,0.000116,8.405797101449276e-05
0.065,756.7,0.0001226,8.884057971014493e-05
0.07,759.5,0.0001292,9.36231884057971e-05
0.075,760.1,0.0001358,9.840579710144928e-05
0.08,759.0,0.0001424,0.0001031884057971
0.085,756.3,0.000149,0.0001079710144927
0.09,752.3,0.0001556,0.0001127536231884
0.095,747.2,0.0001623,0.0001176086956521
0.1,741.2,0.000169,0.0001224637681159
0.125,702.3,0.0002036,0.000147536231884
0.15,657.6,0.0002404,0.0001742028985507
0.175,613.7,0.0002797,0.0002026811594202
0.2,573.3,0.0003219,0.0002332608695652
0.225,539.3,0.0003669,0.0002658695652173
0.25,510.4,0.0004146,0.0003004347826086
0.275,485.2,0.0004649,0.000336884057971
0.3,462.9,0.0005176,0.0003750724637681
0.35,424.6,0.0006305,0.000456884057971
0.4,392.8,0.0007531,0.0005457246376811
0.45,365.7,0.0008851,0.0006413768115942
0.5,342.1,0.001027,0.0007442028985507
0.55,321.4,0.001177,0.0008528985507246
0.6,303.1,0.001338,0.0009695652173913
0.65,287.5,0.001507,0.0010920289855072
0.7,273.8,0.001685,0.0012210144927536
0.75,261.5,0.001872,0.0013565217391304
0.8,250.3,0.002068,0.0014985507246376
0.85,240.3,0.002272,0.0016463768115942
0.9,231.2,0.002484,0.0018
0.95,222.9,0.002704,0.001959420289855
1.0,215.1,0.002933,0.0021253623188405
1.25,184.7,0.004192,0.0030376811594202
1.5,162.7,0.005637,0.0040847826086956
1.75,146.0,0.007262,0.0052623188405797
2.0,132.7,0.009061,0.0065659420289855
2.25,121.9,0.01103,0.0079927536231884
2.5,112.9,0.01316,0.0095362318840579
2.75,105.3,0.01546,0.0112028985507246
3.0,98.77,0.01791,0.0129782608695652
3.5,88.07,0.02328,0.0168695652173913
4.0,79.65,0.02926,0.0212028985507246
4.5,72.85,0.03583,0.025963768115942
5.0,67.22,0.04298,0.0311449275362318
5.5,62.48,0.0507,0.0367391304347826
6.0,58.43,0.05898,0.0427391304347826
6.5,54.92,0.06781,0.0491376811594202
7.0,51.85,0.07719,0.0559347826086956
7.5,49.13,0.0871,0.0631159420289855
8.0,46.71,0.09754,0.0706811594202898
8.5,44.55,0.1085,0.0786231884057971
9.0,42.59,0.12,0.0869565217391304
9.5,40.82,0.132,0.0956521739130435
10.0,39.2,0.1445,0.1047101449275362
12.5,32.85,0.2145,0.1554347826086956
15.0,28.41,0.2965,0.2148550724637681
17.5,25.12,0.3903,0.2828260869565217
20.0,22.58,0.4954,0.3589855072463768
25.0,18.89,0.7387,0.5352898550724638
27.5,17.5,0.8763,0.635
30.0,16.32,1.024,0.7420289855072465
35.0,14.43,1.351,0.9789855072463768
40.0,12.98,1.717,1.2442028985507247
45.0,11.82,2.121,1.5369565217391306
50.0,10.88,2.562,1.8565217391304347
55.0,10.1,3.039,2.2021739130434783
60.0,9.438,3.552,2.573913043478261
65.0,8.87,4.099,2.970289855072464
70.0,8.378,4.679,3.390579710144928
75.0,7.948,5.292,3.834782608695652
80.0,7.567,5.937,4.302173913043479
85.0,7.229,6.613,4.792028985507247
90.0,6.925,7.32,5.304347826086957
95.0,6.652,8.057,5.83840579710145
100.0,6.404,8.823,6.393478260869566
125.0,5.448,13.08,9.47826086956522
150.0,4.795,17.98,13.02898550724638
175.0,4.322,23.48,17.01449275362319
200.0,3.962,29.54,21.40579710144928
225.0,3.68,36.09,26.152173913043484
250.0,3.453,43.11,31.23913043478261
275.0,3.267,50.56,36.637681159420296
300.0,3.111,58.41,42.32608695652174
350.0,2.866,75.18,54.478260869565226
400.0,2.683,93.24,67.56521739130434
450.0,2.542,112.4,81.44927536231886
500.0,2.43,132.5,96.0144927536232
550.0,2.339,153.5,111.23188405797104
600.0,2.265,175.3,127.0289855072464
650.0,2.203,197.6,143.18840579710147
700.0,2.152,220.6,159.85507246376812
750.0,2.106,244.1,176.8840579710145
800.0,2.068,268.1,194.27536231884065
850.0,2.034,292.5,211.95652173913044
900.0,2.005,317.2,229.85507246376807
950.0,1.979,342.3,248.0434782608696
1000.0,1.957,367.7,266.4492753623189
1500.0,1.833,633.3,458.9130434782609
2000.0,1.793,909.6,659.1304347826087
2500.0,1.781,1190.0,862.3188405797102
3000.0,1.782,1470.0,1065.217391304348
4000.0,1.799,2029.0,1470.289855072464
5000.0,1.822,2582.0,1871.0144927536232
6000.0,1.845,3127.0,2265.9420289855075
7000.0,1.868,3665.0,2655.7971014492755
8000.0,1.889,4198.0,3042.0289855072465
9000.0,1.908,4725.0,3423.913043478261
10000.0,1.926,5246.0,3801.449275362319
