Kinetic Energy MeV,Total Stp. Pow. MeV cm2/g,CSDA Range g/cm2,Thickness (cm)
0.001,200.1,6.229e-06,5.190833333333334e-06
0.0015,230.6,8.537e-06,7.114166666666667e-06
0.002,257.6,1.059e-05,8.825000000000001e-06
0.0025,282.1,1.244e-05,1.0366666666666668e-05
0.003,304.7,1.414e-05,1.1783333333333336e-05
0.004,340.7,1.724e-05,1.4366666666666667e-05
0.005,373.5,2.004e-05,1.6700000000000003e-05
0.006,403.6,2.261e-05,1.8841666666666663e-05
0.007,431.4,2.501e-05,2.0841666666666667e-05
0.008,456.2,2.726e-05,2.271666666666667e-05
0.009,479.0,2.94e-05,2.45e-05
0.01,500.2,3.144e-05,2.62e-05
0.0125,543.8,3.623e-05,3.0191666666666664e-05
0.015,580.7,4.067e-05,3.389166666666667e-05
0.0175,612.7,4.486e-05,3.738333333333334e-05
0.02,641.4,4.885e-05,4.070833333333334e-05
0.0225,666.8,5.267e-05,4.389166666666667e-05
0.025,689.4,5.635e-05,4.695833333333333e-05
0.0275,709.4,5.993e-05,4.994166666666666e-05
0.03,727.4,6.341e-05,5.284166666666667e-05
0.035,759.2,7.013e-05,5.8441666666666666e-05
0.04,786.9,7.66e-05,6.383333333333334e-05
0.045,810.4,8.285e-05,6.904166666666666e-05
0.05,829.4,8.895e-05,7.4125e-05
0.055,844.0,9.492e-05,7.910000000000001e-05
0.06,855.0,0.0001008,8.4e-05
0.065,862.8,0.0001066,8.883333333333334e-05
0.07,867.9,0.0001124,9.366666666666666e-05
0.075,870.6,0.0001182,9.85e-05
0.08,871.3,0.0001239,0.00010325
0.085,870.2,0.0001296,0.000108
0.09,867.5,0.0001354,0.0001128333333333
0.095,863.6,0.0001412,0.0001176666666666
0.1,858.5,0.000147,0.0001225
0.125,821.6,0.0001767,0.00014725
0.15,775.5,0.000208,0.0001733333333333
0.175,728.1,0.0002413,0.0002010833333333
0.2,683.0,0.0002767,0.0002305833333333
0.225,641.8,0.0003145,0.0002620833333333
0.25,604.8,0.0003546,0.0002955
0.275,571.8,0.0003972,0.000331
0.3,542.5,0.0004421,0.0003684166666666
0.35,492.8,0.0005389,0.0004490833333333
0.4,452.5,0.0006449,0.0005374166666666
0.45,419.5,0.0007598,0.0006331666666666
0.5,392.2,0.0008832,0.000736
0.55,369.0,0.001015,0.0008458333333333
0.6,348.7,0.001154,0.0009616666666666
0.65,331.0,0.001301,0.0010841666666666
0.7,315.2,0.001456,0.0012133333333333
0.75,301.1,0.001619,0.0013491666666666
0.8,288.4,0.001788,0.00149
0.85,276.9,0.001965,0.0016375
0.9,266.3,0.00215,0.0017916666666666
0.95,256.7,0.002341,0.0019508333333333
1.0,247.8,0.002539,0.0021158333333333
1.25,212.1,0.003634,0.0030283333333333
1.5,186.5,0.004894,0.0040783333333333
1.75,166.9,0.006313,0.0052608333333333
2.0,151.4,0.007888,0.0065733333333333
2.25,138.8,0.009614,0.0080116666666666
2.5,128.4,0.01149,0.009575
2.75,119.6,0.01351,0.0112583333333333
3.0,112.0,0.01567,0.0130583333333333
3.5,99.62,0.02041,0.0170083333333333
4.0,89.9,0.0257,0.0214166666666666
4.5,82.07,0.03153,0.026275
5.0,75.6,0.03788,0.0315666666666666
5.5,70.16,0.04476,0.0373
6.0,65.52,0.05214,0.04345
6.5,61.5,0.06002,0.0500166666666666
7.0,57.99,0.06839,0.0569916666666666
7.5,54.89,0.07726,0.0643833333333333
8.0,52.13,0.08661,0.072175
8.5,49.67,0.09644,0.0803666666666666
9.0,47.45,0.1067,0.0889166666666666
9.5,45.43,0.1175,0.0979166666666666
10.0,43.6,0.1288,0.1073333333333333
12.5,36.41,0.1918,0.1598333333333333
15.0,31.41,0.2659,0.2215833333333333
17.5,27.71,0.3509,0.2924166666666666
20.0,24.86,0.4463,0.3719166666666667
25.0,20.73,0.6676,0.5563333333333333
27.5,19.19,0.793,0.6608333333333334
30.0,17.88,0.9281,0.7734166666666668
35.0,15.79,1.226,1.0216666666666667
40.0,14.18,1.561,1.3008333333333333
45.0,12.9,1.931,1.6091666666666669
50.0,11.86,2.336,1.9466666666666663
55.0,11.0,2.774,2.311666666666667
60.0,10.27,3.245,2.704166666666667
65.0,9.647,3.747,3.1225
70.0,9.107,4.281,3.5675
75.0,8.634,4.845,4.0375
80.0,8.217,5.439,4.532500000000001
85.0,7.846,6.062,5.051666666666667
90.0,7.513,6.714,5.595000000000001
95.0,7.214,7.393,6.160833333333334
100.0,6.943,8.1,6.75
125.0,5.897,12.02,10.016666666666667
150.0,5.185,16.56,13.8
175.0,4.669,21.65,18.041666666666668
200.0,4.278,27.25,22.708333333333336
225.0,3.971,33.33,27.775
250.0,3.724,39.83,33.19166666666667
275.0,3.521,46.74,38.95
300.0,3.352,54.03,45.025000000000006
350.0,3.086,69.6,58.0
400.0,2.887,86.38,71.98333333333333
450.0,2.733,104.2,86.83333333333334
500.0,2.612,122.9,102.41666666666669
550.0,2.513,142.4,118.66666666666669
600.0,2.433,162.7,135.58333333333334
650.0,2.366,183.5,152.91666666666669
700.0,2.309,204.9,170.75
750.0,2.26,226.8,189.00000000000003
800.0,2.218,249.2,207.66666666666663
850.0,2.181,271.9,226.5833333333333
900.0,2.149,295.0,245.8333333333333
950.0,2.121,318.4,265.3333333333333
1000.0,2.096,342.1,285.08333333333337
1500.0,1.958,590.4,492.0
2000.0,1.909,849.6,708.0
2500.0,1.892,1113.0,927.5
3000.0,1.889,1378.0,1148.3333333333337
4000.0,1.901,1906.0,1588.3333333333337
5000.0,1.92,2429.0,2024.1666666666667
6000.0,1.94,2947.0,2455.833333333333
7000.0,1.96,3460.0,2883.333333333333
8000.0,1.979,3968.0,3306.666666666667
9000.0,1.997,4471.0,3725.8333333333335
10000.0,2.014,4969.0,4140.833333333334
