Kinetic Energy MeV,Total Stp. Pow. MeV cm2/g,CSDA Range g/cm2,Thickness (cm)
0.001,234.4,5.179e-06,5.980369515011548e-06
0.0015,269.0,7.154e-06,8.260969976905312e-06
0.002,300.0,8.913e-06,1.0292147806004616e-05
0.0025,328.3,1.05e-05,1.2124711316397227e-05
0.003,354.4,1.197e-05,1.382217090069284e-05
0.004,395.9,1.463e-05,1.689376443418014e-05
0.005,433.9,1.704e-05,1.967667436489608e-05
0.006,468.7,1.926e-05,2.2240184757505773e-05
0.007,500.7,2.132e-05,2.46189376443418e-05
0.008,529.5,2.326e-05,2.6859122401847577e-05
0.009,555.7,2.511e-05,2.8995381062355657e-05
0.01,580.2,2.687e-05,3.102771362586605e-05
0.0125,630.2,3.099e-05,3.5785219399538105e-05
0.015,672.2,3.483e-05,4.021939953810624e-05
0.0175,708.6,3.845e-05,4.439953810623557e-05
0.02,741.0,4.19e-05,4.838337182448037e-05
0.0225,769.6,4.521e-05,5.220554272517321e-05
0.025,794.8,4.84e-05,5.588914549653579e-05
0.0275,817.0,5.15e-05,5.946882217090069e-05
0.03,836.7,5.453e-05,6.29676674364896e-05
0.035,871.4,6.038e-05,6.97228637413395e-05
0.04,901.3,6.602e-05,7.623556581986143e-05
0.045,926.3,7.149e-05,8.255196304849883e-05
0.05,946.1,7.683e-05,8.871824480369515e-05
0.055,960.9,8.207e-05,9.476905311778292e-05
0.06,971.4,8.724e-05,0.000100739030023
0.065,978.3,9.237e-05,0.0001066628175519
0.07,982.1,9.747e-05,0.0001125519630484
0.075,983.4,0.0001026,0.0001184757505773
0.08,982.3,0.0001076,0.0001242494226327
0.085,979.3,0.0001127,0.0001301385681293
0.09,974.7,0.0001179,0.0001361431870669
0.095,968.6,0.000123,0.0001420323325635
0.1,961.4,0.0001282,0.0001480369515011
0.125,913.5,0.0001548,0.000178752886836
0.15,857.3,0.0001831,0.0002114318706697
0.175,801.1,0.0002132,0.0002461893764434
0.2,748.7,0.0002455,0.0002834872979214
0.225,701.4,0.00028,0.0003233256351039
0.25,659.3,0.0003168,0.0003658198614318
0.275,622.0,0.0003559,0.0004109699769053
0.3,589.1,0.0003972,0.0004586605080831
0.35,535.6,0.0004864,0.0005616628175519
0.4,493.3,0.0005837,0.0006740184757505
0.45,458.2,0.000689,0.0007956120092378
0.5,428.2,0.000802,0.0009260969976905
0.55,402.2,0.0009225,0.0010652424942263
0.6,379.5,0.001051,0.0012136258660508
0.65,359.7,0.001186,0.0013695150115473
0.7,342.2,0.001329,0.0015346420323325
0.75,326.6,0.001478,0.0017066974595842
0.8,312.5,0.001635,0.0018879907621247
0.85,299.8,0.001798,0.0020762124711316
0.9,288.2,0.001968,0.0022725173210161
0.95,277.5,0.002145,0.0024769053117782
1.0,267.7,0.002329,0.002689376443418
1.25,228.6,0.003343,0.0038602771362586
1.5,200.6,0.004513,0.0052113163972286
1.75,179.2,0.005834,0.0067367205542725
2.0,162.4,0.007302,0.0084318706697459
2.25,148.7,0.008912,0.0102909930715935
2.5,137.4,0.01066,0.0123094688221709
2.75,127.8,0.01255,0.0144919168591224
3.0,119.6,0.01457,0.016824480369515
3.5,106.3,0.01902,0.0219630484988452
4.0,95.81,0.02398,0.0276905311778291
4.5,87.38,0.02945,0.0340069284064665
5.0,80.43,0.03542,0.0409006928406466
5.5,74.58,0.04188,0.0483602771362586
6.0,69.6,0.04883,0.0563856812933025
6.5,65.3,0.05625,0.0649538106235565
7.0,61.54,0.06414,0.0740646651270207
7.5,58.23,0.07249,0.0837066974595843
8.0,55.28,0.08131,0.0938914549653579
8.5,52.66,0.09058,0.10459584295612
9.0,50.28,0.1003,0.1158198614318706
9.5,48.13,0.1105,0.1275981524249422
10.0,46.17,0.1211,0.139838337182448
12.5,38.52,0.1806,0.2085450346420323
15.0,33.2,0.2508,0.2896073903002309
17.5,29.27,0.3312,0.3824480369515011
20.0,26.24,0.4215,0.4867205542725173
25.0,21.87,0.6313,0.7289838337182448
27.5,20.23,0.7502,0.8662817551963048
30.0,18.85,0.8783,1.014203233256351
35.0,16.63,1.161,1.340646651270208
40.0,14.93,1.479,1.7078521939953812
45.0,13.58,1.831,2.11431870669746
50.0,12.48,2.215,2.5577367205542725
55.0,11.57,2.632,3.039260969976905
60.0,10.8,3.079,3.5554272517321017
65.0,10.14,3.557,4.107390300230946
70.0,9.574,4.065,4.693995381062356
75.0,9.075,4.602,5.3140877598152425
80.0,8.635,5.167,5.966512702078521
85.0,8.244,5.76,6.6512702078521935
90.0,7.894,6.38,7.367205542725173
95.0,7.578,7.026,8.113163972286374
100.0,7.293,7.699,8.890300230946883
125.0,6.191,11.44,13.210161662817551
150.0,5.442,15.76,18.198614318706696
175.0,4.898,20.61,23.79907621247113
200.0,4.487,25.95,29.96535796766744
225.0,4.164,31.74,36.65127020785219
250.0,3.904,37.95,43.822170900692846
275.0,3.691,44.54,51.43187066974596
300.0,3.513,51.49,59.45727482678984
350.0,3.233,66.35,76.61662817551962
400.0,3.024,82.36,95.1039260969977
450.0,2.863,99.37,114.7459584295612
500.0,2.735,117.3,135.4503464203233
550.0,2.632,135.9,156.9284064665127
600.0,2.547,155.2,179.2147806004619
650.0,2.476,175.1,202.1939953810624
700.0,2.417,195.6,225.86605080831407
750.0,2.366,216.5,250.0
800.0,2.322,237.8,274.5958429561201
850.0,2.283,259.6,299.76905311778296
900.0,2.25,281.6,325.17321016166284
950.0,2.22,304.0,351.0392609699769
1000.0,2.194,326.6,377.1362586605081
1500.0,2.049,563.9,651.1547344110854
2000.0,1.997,811.6,937.1824480369517
2500.0,1.978,1063.0,1227.4826789838337
3000.0,1.975,1316.0,1519.6304849884527
4000.0,1.986,1822.0,2103.9260969976904
5000.0,2.005,2323.0,2682.4480369515013
6000.0,2.026,2819.0,3255.1963048498847
7000.0,2.047,3310.0,3822.170900692841
8000.0,2.066,3796.0,4383.3718244803695
9000.0,2.084,4278.0,4939.953810623557
10000.0,2.101,4756.0,5491.916859122402
